Summary output file for CONGO-2D

Definition of terms:
Stream Thrust = Mdot*Vel + Pexit*Aexit
Gross Thrust = Mdot*Vel + Pexit*Aexit - Pamb*Aexit
Stream Thrust = Gross Thrust when Pamb = 0 (vacuum)
Cfg = Nozzle Thrust Coefficient (Gross Isp/Ideal Isp)
C* = Characteristic Exhaust Velocity
CD = Discharge coefficient: Massflow 2D/ Massflow 1D
1D = Assumes input are axial
2D = Uses actual flow angles in calculation

Input parameters
R*  = Throat Radius (in)

Nozzle Type: Perfect Nozzle

Nozzle Geometry:	Axisymmetric Nozzle
Design Parameter:	Exit Mach Number = 3.5
Throat Geometry created by two arcs of given radii.
Upstream Radius/R*:	1
Downstream Radius/R*:	1

Thermodynamic Inputs
Total Pressure (psia):	500
Total Temperature (R):	530
Gamma:	1.4
Molecular Weight:	28.96
Ambient Pressure (psia):	0

MOC Grid Parameters
Number of characteristic lines at the nozzle throat:	101
Maximum allowable angle between characteristics along wall (deg):	0.5
Number of RRCs to calculate above KERNEL (50-100):	100

The Initial Data Line is where the MOC calculation begins.
Its based on the upstream radius of curvature and gamma.
It is solved for using a method developed
by Kliegel and Levine. This method is based on a method
developed by Hall. Hall used cylindrical coordinates (R)
This method uses toroid coordinates (R+1). This method
does better for small upstream radii.

Initial Data Line (Throat)

I	X/R*	R/R*	Mach	Flow Angle(deg)	Pres.(psia)	Temp.(R)	Den.(slug/ft3)	Gamma	Mass Flow(lbm/s)
0	0	1	1.17779	0	212.216	414.892	0.0429112	1.4	35.7288
1	0.000115146	0.999815	1.17793	0.0142295	212.179	414.872	0.0429059	1.4	35.7157
2	0.000460843	0.99926	1.17833	0.0567608	212.069	414.81	0.0428899	1.4	35.6764
3	0.00103843	0.998335	1.17901	0.127212	211.884	414.707	0.0428632	1.4	35.6109
4	0.00185042	0.997042	1.17996	0.224996	211.625	414.562	0.0428257	1.4	35.5193
5	0.00290049	0.99538	1.18118	0.349323	211.289	414.374	0.0427772	1.4	35.4017
6	0.00419348	0.99335	1.1827	0.499205	210.875	414.142	0.0427174	1.4	35.2583
7	0.00573538	0.990955	1.18451	0.67346	210.382	413.865	0.042646	1.4	35.0891
8	0.00753329	0.988195	1.18662	0.870718	209.808	413.541	0.0425628	1.4	34.8943
9	0.00959544	0.985073	1.18904	1.08943	209.149	413.17	0.0424673	1.4	34.6742
10	0.0119311	0.981589	1.19179	1.32788	208.404	412.749	0.0423592	1.4	34.429
11	0.0145506	0.977747	1.19487	1.58418	207.572	412.278	0.0422383	1.4	34.1589
12	0.0174652	0.973549	1.19829	1.85631	206.649	411.753	0.0421041	1.4	33.8643
13	0.0206871	0.968997	1.20206	2.14213	205.636	411.175	0.0419565	1.4	33.5454
14	0.0242295	0.964094	1.20618	2.43935	204.53	410.543	0.0417953	1.4	33.2027
15	0.0281061	0.958842	1.21067	2.74562	203.333	409.854	0.0416203	1.4	32.8366
16	0.0323314	0.953247	1.21552	3.05853	202.043	409.11	0.0414316	1.4	32.4474
17	0.0369204	0.94731	1.22073	3.37561	200.663	408.31	0.0412293	1.4	32.0358
18	0.0418884	0.941036	1.2263	3.69437	199.195	407.454	0.0410135	1.4	31.6021
19	0.047251	0.934428	1.23222	4.01235	197.641	406.543	0.0407848	1.4	31.147
20	0.053024	0.927491	1.23849	4.32714	196.006	405.579	0.0405435	1.4	30.671
21	0.0592226	0.920228	1.24509	4.6364	194.295	404.564	0.0402903	1.4	30.1749
22	0.065862	0.912645	1.25201	4.93788	192.513	403.501	0.0400261	1.4	29.6594
23	0.0729568	0.904746	1.25921	5.22951	190.668	402.392	0.0397517	1.4	29.1252
24	0.0805207	0.896536	1.26669	5.50934	188.766	401.241	0.0394681	1.4	28.5732
25	0.0885663	0.888021	1.27441	5.77563	186.817	400.053	0.0391766	1.4	28.0043
26	0.0971052	0.879204	1.28234	6.02686	184.829	398.832	0.0388784	1.4	27.4193
27	0.106147	0.870093	1.29045	6.26173	182.811	397.583	0.0385747	1.4	26.8194
28	0.115701	0.860693	1.29871	6.47917	180.773	396.312	0.038267	1.4	26.2055
29	0.125773	0.85101	1.30709	6.67837	178.723	395.023	0.0379565	1.4	25.5787
30	0.136367	0.841049	1.31554	6.85878	176.671	393.721	0.0376447	1.4	24.9403
31	0.147487	0.830818	1.32404	7.02008	174.625	392.413	0.0373329	1.4	24.2913
32	0.159132	0.820322	1.33255	7.16219	172.594	391.104	0.0370222	1.4	23.6331
33	0.171301	0.809568	1.34105	7.28524	170.585	389.797	0.0367138	1.4	22.9669
34	0.18399	0.798564	1.34949	7.3896	168.604	388.499	0.0364088	1.4	22.2939
35	0.197194	0.787315	1.35787	7.47579	166.657	387.212	0.036108	1.4	21.6155
36	0.210903	0.77583	1.36615	7.5445	164.749	385.939	0.0358121	1.4	20.9329
37	0.225109	0.764116	1.37432	7.59653	162.881	384.685	0.0355217	1.4	20.2475
38	0.239801	0.75218	1.38237	7.63282	161.058	383.449	0.0352372	1.4	19.5605
39	0.254966	0.74003	1.3903	7.65433	159.278	382.234	0.0349587	1.4	18.8733
40	0.270589	0.727673	1.39809	7.66209	157.543	381.04	0.0346862	1.4	18.187
41	0.286657	0.715119	1.40576	7.65715	155.851	379.865	0.0344196	1.4	17.5029
42	0.303153	0.702374	1.41331	7.64053	154.198	378.71	0.0341585	1.4	16.8222
43	0.320063	0.689448	1.42075	7.61322	152.582	377.572	0.0339024	1.4	16.146
44	0.337369	0.676348	1.42811	7.57616	150.998	376.448	0.0336506	1.4	15.4755
45	0.355055	0.663084	1.4354	7.53023	149.441	375.334	0.0334024	1.4	14.8118
46	0.373106	0.649663	1.44265	7.4762	147.905	374.229	0.0331569	1.4	14.1559
47	0.391504	0.636096	1.44989	7.41478	146.385	373.125	0.0329131	1.4	13.5088
48	0.410235	0.622391	1.45714	7.34657	144.874	372.021	0.0326701	1.4	12.8715
49	0.429283	0.608557	1.46444	7.27207	143.365	370.91	0.0324266	1.4	12.2448
50	0.448634	0.594604	1.47183	7.19172	141.852	369.787	0.0321818	1.4	11.6297
51	0.468272	0.58054	1.47934	7.10582	140.328	368.647	0.0319345	1.4	11.027
52	0.488185	0.566376	1.48699	7.01465	138.787	367.487	0.0316837	1.4	10.4375
53	0.508358	0.552122	1.49483	6.91838	137.224	366.299	0.0314284	1.4	9.86193
54	0.518569	0.537786	1.4918	6.6809	137.827	366.758	0.0315269	1.4	9.34071
55	0.538832	0.523379	1.49991	6.57725	136.22	365.531	0.0312639	1.4	8.79441
56	0.549073	0.508912	1.49759	6.34561	136.677	365.882	0.0313389	1.4	8.29959
57	0.559232	0.494394	1.49566	6.11855	137.059	366.173	0.0314014	1.4	7.81785
58	0.56931	0.479835	1.49413	5.89595	137.363	366.405	0.0314511	1.4	7.34966
59	0.579307	0.465246	1.49301	5.67769	137.587	366.576	0.0314877	1.4	6.89547
60	0.589224	0.450638	1.49229	5.46366	137.729	366.684	0.031511	1.4	6.45565
61	0.59906	0.436021	1.49198	5.25374	137.79	366.73	0.0315209	1.4	6.03058
62	0.608817	0.421406	1.49209	5.04784	137.77	366.715	0.0315175	1.4	5.62055
63	0.618493	0.406804	1.4926	4.84587	137.668	366.638	0.031501	1.4	5.22584
64	0.62809	0.392226	1.4935	4.64774	137.489	366.501	0.0314716	1.4	4.84667
65	0.637605	0.377683	1.49479	4.45341	137.232	366.305	0.0314297	1.4	4.48322
66	0.647039	0.363186	1.49646	4.26282	136.902	366.053	0.0313756	1.4	4.13562
67	0.656391	0.348748	1.49849	4.07592	136.501	365.746	0.0313099	1.4	3.80394
68	0.661024	0.334378	1.49669	3.86275	136.855	366.018	0.031368	1.4	3.49468
69	0.670149	0.320089	1.49937	3.68454	136.326	365.612	0.0312813	1.4	3.19437
70	0.674667	0.305893	1.49835	3.48394	136.528	365.767	0.0313144	1.4	2.91515
71	0.679114	0.291802	1.49768	3.29008	136.66	365.869	0.0313361	1.4	2.65065
72	0.683491	0.277828	1.49733	3.10276	136.729	365.921	0.0313473	1.4	2.40084
73	0.687796	0.263984	1.49729	2.92178	136.738	365.928	0.0313488	1.4	2.16563
74	0.692029	0.250281	1.49752	2.74697	136.692	365.893	0.0313413	1.4	1.94487
75	0.696189	0.236733	1.498	2.57813	136.596	365.82	0.0313256	1.4	1.73839
76	0.700276	0.223353	1.49871	2.41506	136.455	365.712	0.0313025	1.4	1.54596
77	0.704288	0.210154	1.49964	2.25757	136.273	365.572	0.0312727	1.4	1.36733
78	0.706255	0.19715	1.49905	2.09877	136.389	365.661	0.0312917	1.4	1.20305
79	0.708179	0.184354	1.49866	1.94625	136.465	365.719	0.0313041	1.4	1.05166
80	0.710058	0.17178	1.49846	1.79977	136.505	365.75	0.0313107	1.4	0.912816
81	0.713725	0.159445	1.49999	1.66405	136.203	365.519	0.0312612	1.4	0.785646
82	0.71462	0.147362	1.49933	1.52631	136.334	365.619	0.0312826	1.4	0.671078
83	0.716361	0.135548	1.49956	1.39636	136.288	365.583	0.0312751	1.4	0.567588
84	0.718052	0.124019	1.49991	1.27159	136.22	365.531	0.0312639	1.4	0.47497
85	0.718873	0.112792	1.49965	1.15031	136.27	365.57	0.0312722	1.4	0.392839
86	0.719666	0.101886	1.4995	1.03426	136.3	365.593	0.0312771	1.4	0.32051
87	0.720431	0.091319	1.49944	0.923324	136.312	365.602	0.031279	1.4	0.257446
88	0.721168	0.0811128	1.49947	0.817406	136.307	365.598	0.0312782	1.4	0.203088
89	0.721874	0.0712893	1.49956	0.716457	136.288	365.584	0.0312751	1.4	0.156852
90	0.722548	0.0618726	1.49972	0.620479	136.258	365.56	0.0312701	1.4	0.118134
91	0.723189	0.0528898	1.49992	0.529525	136.218	365.53	0.0312635	1.4	0.086309
92	0.723493	0.044371	1.4999	0.443493	136.22	365.532	0.031264	1.4	0.0607422
93	0.723777	0.0363508	1.49993	0.362881	136.215	365.527	0.031263	1.4	0.0407659
94	0.72391	0.0288697	1.49989	0.287892	136.224	365.534	0.0312645	1.4	0.0257127
95	0.724153	0.0219768	1.49998	0.21904	136.205	365.52	0.0312615	1.4	0.0148993
96	0.724263	0.0157341	1.5	0.15675	136.202	365.518	0.031261	1.4	0.00763677
97	0.724311	0.010224	1.49999	0.101826	136.203	365.518	0.0312611	1.4	0.00322453
98	0.724331	0.00556695	1.49999	0.0554352	136.204	365.519	0.0312613	1.4	0.000956004
99	0.724347	0.00196858	1.49999	0.019602	136.203	365.519	0.0312612	1.4	0.000119544
100	0.724356	0	1.5	0	136.202	365.518	0.031261	1.4	0

Initial Data Line(Throat Plane) 
For a throat radius(in) = 1.0. 
2-D Mass Flow (lbm/s):	35.7288
2-D Gross Thrust (lbf):	1971.99
2-D Isp (lbf-s/lbm):	55.1933
For an axisymmeric nozzle ,thrust and massflow are proportional to the throat
radius squared (R*^2). To find these values for a radius other than 1 inch,
multiple the values by the square of the new radius. For example, for a radius
of 3 inches, thrust and massflow would increase by a factor of 9.
2-D C* (ft/s):	1414.51

Based on the total conditions and assuming Mach = 1 at throat
1-D Mass Flow (lbm/s):	36.2819
1-D Gross Thrust (lbf):	1991.58
1-D Gross Isp (lbf-s/lbm):	54.8917
1-D C* (ft/s):	1392.95
CD(2-D/1-D):	0.984756

Initial Expansion Angle ThetaB(deg):	15.2196
Massflow error due to grid at end of Kernel (%):	100

Last LRC, DE that effects the nozzle wall contour.
J	X/R*	R/R*	Mach	Theta(deg)	P(psia)	T(R)	Velocity(ft/s)	Density(slug/ft3)	Gamma	
0	3.8308	0	3.5	0	6.55546	153.623	0.00357992	1.4
1	3.91785	0.0259548	3.5	0	6.55546	153.623	0.00357992	1.4
2	4.00491	0.0519096	3.5	0	6.55546	153.623	0.00357992	1.4
3	4.09196	0.0778644	3.5	0	6.55546	153.623	0.00357992	1.4
4	4.17902	0.103819	3.5	0	6.55546	153.623	0.00357992	1.4
5	4.26607	0.129774	3.5	0	6.55546	153.623	0.00357992	1.4
6	4.35313	0.155729	3.5	0	6.55546	153.623	0.00357992	1.4
7	4.44018	0.181683	3.5	0	6.55546	153.623	0.00357992	1.4
8	4.52724	0.207638	3.5	0	6.55546	153.623	0.00357992	1.4
9	4.61429	0.233593	3.5	0	6.55546	153.623	0.00357992	1.4
10	4.70135	0.259548	3.5	0	6.55546	153.623	0.00357992	1.4
11	4.7884	0.285503	3.5	0	6.55546	153.623	0.00357992	1.4
12	4.87546	0.311457	3.5	0	6.55546	153.623	0.00357992	1.4
13	4.96251	0.337412	3.5	0	6.55546	153.623	0.00357992	1.4
14	5.04957	0.363367	3.5	0	6.55546	153.623	0.00357992	1.4
15	5.13662	0.389322	3.5	0	6.55546	153.623	0.00357992	1.4
16	5.22368	0.415277	3.5	0	6.55546	153.623	0.00357992	1.4
17	5.31073	0.441231	3.5	0	6.55546	153.623	0.00357992	1.4
18	5.39779	0.467186	3.5	0	6.55546	153.623	0.00357992	1.4
19	5.48484	0.493141	3.5	0	6.55546	153.623	0.00357992	1.4
20	5.5719	0.519096	3.5	0	6.55546	153.623	0.00357992	1.4
21	5.65895	0.54505	3.5	0	6.55546	153.623	0.00357992	1.4
22	5.74601	0.571005	3.5	0	6.55546	153.623	0.00357992	1.4
23	5.83306	0.59696	3.5	0	6.55546	153.623	0.00357992	1.4
24	5.92012	0.622915	3.5	0	6.55546	153.623	0.00357992	1.4
25	6.00717	0.64887	3.5	0	6.55546	153.623	0.00357992	1.4
26	6.09423	0.674824	3.5	0	6.55546	153.623	0.00357992	1.4
27	6.18128	0.700779	3.5	0	6.55546	153.623	0.00357992	1.4
28	6.26834	0.726734	3.5	0	6.55546	153.623	0.00357992	1.4
29	6.35539	0.752689	3.5	0	6.55546	153.623	0.00357992	1.4
30	6.44245	0.778644	3.5	0	6.55546	153.623	0.00357992	1.4
31	6.5295	0.804598	3.5	0	6.55546	153.623	0.00357992	1.4
32	6.61656	0.830553	3.5	0	6.55546	153.623	0.00357992	1.4
33	6.70361	0.856508	3.5	0	6.55546	153.623	0.00357992	1.4
34	6.79067	0.882463	3.5	0	6.55546	153.623	0.00357992	1.4
35	6.87772	0.908417	3.5	0	6.55546	153.623	0.00357992	1.4
36	6.96478	0.934372	3.5	0	6.55546	153.623	0.00357992	1.4
37	7.05183	0.960327	3.5	0	6.55546	153.623	0.00357992	1.4
38	7.13889	0.986282	3.5	0	6.55546	153.623	0.00357992	1.4
39	7.22594	1.01224	3.5	0	6.55546	153.623	0.00357992	1.4
40	7.313	1.03819	3.5	0	6.55546	153.623	0.00357992	1.4
41	7.40005	1.06415	3.5	0	6.55546	153.623	0.00357992	1.4
42	7.48711	1.0901	3.5	0	6.55546	153.623	0.00357992	1.4
43	7.57416	1.11606	3.5	0	6.55546	153.623	0.00357992	1.4
44	7.66122	1.14201	3.5	0	6.55546	153.623	0.00357992	1.4
45	7.74827	1.16797	3.5	0	6.55546	153.623	0.00357992	1.4
46	7.83533	1.19392	3.5	0	6.55546	153.623	0.00357992	1.4
47	7.92238	1.21987	3.5	0	6.55546	153.623	0.00357992	1.4
48	8.00944	1.24583	3.5	0	6.55546	153.623	0.00357992	1.4
49	8.09649	1.27178	3.5	0	6.55546	153.623	0.00357992	1.4
50	8.18355	1.29774	3.5	0	6.55546	153.623	0.00357992	1.4
51	8.2706	1.32369	3.5	0	6.55546	153.623	0.00357992	1.4
52	8.35766	1.34965	3.5	0	6.55546	153.623	0.00357992	1.4
53	8.44471	1.3756	3.5	0	6.55546	153.623	0.00357992	1.4
54	8.53177	1.40156	3.5	0	6.55546	153.623	0.00357992	1.4
55	8.61882	1.42751	3.5	0	6.55546	153.623	0.00357992	1.4
56	8.70588	1.45347	3.5	0	6.55546	153.623	0.00357992	1.4
57	8.79293	1.47942	3.5	0	6.55546	153.623	0.00357992	1.4
58	8.87999	1.50538	3.5	0	6.55546	153.623	0.00357992	1.4
59	8.96704	1.53133	3.5	0	6.55546	153.623	0.00357992	1.4
60	9.0541	1.55729	3.5	0	6.55546	153.623	0.00357992	1.4
61	9.14115	1.58324	3.5	0	6.55546	153.623	0.00357992	1.4
62	9.22821	1.6092	3.5	0	6.55546	153.623	0.00357992	1.4
63	9.31526	1.63515	3.5	0	6.55546	153.623	0.00357992	1.4
64	9.40232	1.66111	3.5	0	6.55546	153.623	0.00357992	1.4
65	9.48937	1.68706	3.5	0	6.55546	153.623	0.00357992	1.4
66	9.57643	1.71302	3.5	0	6.55546	153.623	0.00357992	1.4
67	9.66348	1.73897	3.5	0	6.55546	153.623	0.00357992	1.4
68	9.75054	1.76493	3.5	0	6.55546	153.623	0.00357992	1.4
69	9.83759	1.79088	3.5	0	6.55546	153.623	0.00357992	1.4
70	9.92465	1.81683	3.5	0	6.55546	153.623	0.00357992	1.4
71	10.0117	1.84279	3.5	0	6.55546	153.623	0.00357992	1.4
72	10.0988	1.86874	3.5	0	6.55546	153.623	0.00357992	1.4
73	10.1858	1.8947	3.5	0	6.55546	153.623	0.00357992	1.4
74	10.2729	1.92065	3.5	0	6.55546	153.623	0.00357992	1.4
75	10.3599	1.94661	3.5	0	6.55546	153.623	0.00357992	1.4
76	10.447	1.97256	3.5	0	6.55546	153.623	0.00357992	1.4
77	10.534	1.99852	3.5	0	6.55546	153.623	0.00357992	1.4
78	10.6211	2.02447	3.5	0	6.55546	153.623	0.00357992	1.4
79	10.7081	2.05043	3.5	0	6.55546	153.623	0.00357992	1.4
80	10.7952	2.07638	3.5	0	6.55546	153.623	0.00357992	1.4
81	10.8823	2.10234	3.5	0	6.55546	153.623	0.00357992	1.4
82	10.9693	2.12829	3.5	0	6.55546	153.623	0.00357992	1.4
83	11.0564	2.15425	3.5	0	6.55546	153.623	0.00357992	1.4
84	11.1434	2.1802	3.5	0	6.55546	153.623	0.00357992	1.4
85	11.2305	2.20616	3.5	0	6.55546	153.623	0.00357992	1.4
86	11.3175	2.23211	3.5	0	6.55546	153.623	0.00357992	1.4
87	11.4046	2.25807	3.5	0	6.55546	153.623	0.00357992	1.4
88	11.4916	2.28402	3.5	0	6.55546	153.623	0.00357992	1.4
89	11.5787	2.30998	3.5	0	6.55546	153.623	0.00357992	1.4
90	11.6657	2.33593	3.5	0	6.55546	153.623	0.00357992	1.4
91	11.7528	2.36189	3.5	0	6.55546	153.623	0.00357992	1.4
92	11.8399	2.38784	3.5	0	6.55546	153.623	0.00357992	1.4
93	11.9269	2.41379	3.5	0	6.55546	153.623	0.00357992	1.4
94	12.014	2.43975	3.5	0	6.55546	153.623	0.00357992	1.4
95	12.101	2.4657	3.5	0	6.55546	153.623	0.00357992	1.4
96	12.1881	2.49166	3.5	0	6.55546	153.623	0.00357992	1.4
97	12.2751	2.51761	3.5	0	6.55546	153.623	0.00357992	1.4
98	12.3622	2.54357	3.5	0	6.55546	153.623	0.00357992	1.4
99	12.4492	2.56952	3.5	0	6.55546	153.623	0.00357992	1.4
100	12.5363	2.59548	3.5	0	6.55546	153.623	0.00357992	1.4


Calculated wall contour
J	X/R*	R/R*	Mach	Theta(deg)	P(psia)	T(R)	Density(slug/ft3)	Gamma	Mass Flow (lbm)	%Dif in Mdot
0	0	1	1.17779	0	212.216	414.892	0.0429112	1.4	35.7288	0
1	0.000230286	1	1.17789	0.0131944	212.191	414.878	0.0429076	1.4	36.0004	0.76026
2	0.000920735	1	1.17816	0.0527543	212.115	414.836	0.0428965	1.4	36.0074	0.77988
3	0.00207073	1	1.17865	0.118644	211.981	414.761	0.0428772	1.4	36.0124	0.793707
4	0.00367965	1.00001	1.17938	0.210829	211.782	414.65	0.0428485	1.4	36.0154	0.802265
5	0.00574714	1.00002	1.18039	0.329289	211.506	414.495	0.0428086	1.4	36.0168	0.806067
6	0.00827332	1.00003	1.18174	0.474031	211.138	414.289	0.0427554	1.4	36.0167	0.805712
7	0.0112592	1.00006	1.18349	0.645118	210.659	414.021	0.0426861	1.4	36.0153	0.801988
8	0.0147071	1.00011	1.18573	0.842684	210.049	413.678	0.0425978	1.4	36.0131	0.795695
9	0.0186211	1.00017	1.18855	1.06697	209.284	413.246	0.0424868	1.4	36.0101	0.787458
10	0.0230076	1.00026	1.19204	1.31835	208.336	412.711	0.0423493	1.4	36.0068	0.778113
11	0.027876	1.00039	1.19633	1.59738	207.178	412.054	0.0421811	1.4	36.0034	0.768629
12	0.0332391	1.00055	1.20152	1.90481	205.78	411.258	0.0419775	1.4	36.0004	0.760342
13	0.0391138	1.00077	1.20775	2.24162	204.11	410.301	0.0417339	1.4	35.9987	0.755441
14	0.0455216	1.00104	1.21516	2.6091	202.136	409.164	0.0414453	1.4	35.9981	0.753784
15	0.0524892	1.00138	1.22389	3.00879	199.828	407.823	0.0411066	1.4	35.9981	0.753725
16	0.0600488	1.0018	1.23409	3.44261	197.154	406.257	0.040713	1.4	35.998	0.753362
17	0.0682387	1.00233	1.2459	3.91283	194.086	404.44	0.0402594	1.4	35.9979	0.753192
18	0.0725912	1.00264	1.25257	4.16283	192.367	403.414	0.0400044	1.4	35.9979	0.753113
19	0.0771036	1.00298	1.2595	4.4221	190.596	402.349	0.0397409	1.4	35.9979	0.753104
20	0.0814532	1.00332	1.26654	4.6721	188.804	401.264	0.0394737	1.4	35.9978	0.753033
21	0.0866942	1.00377	1.27503	4.97346	186.66	399.957	0.0391531	1.4	35.9978	0.752973
22	0.0910403	1.00415	1.28243	5.22346	184.807	398.818	0.038875	1.4	35.9978	0.752912
23	0.097068	1.00472	1.29269	5.57036	182.258	397.239	0.0384913	1.4	35.9978	0.752816
24	0.10141	1.00516	1.30041	5.82036	180.356	396.05	0.0382039	1.4	35.9977	0.752766
25	0.108289	1.00588	1.31265	6.2167	177.372	394.167	0.0377514	1.4	35.9977	0.752627
26	0.112626	1.00636	1.32067	6.4667	175.435	392.932	0.0374564	1.4	35.9977	0.752586
27	0.120429	1.00728	1.3351	6.91684	171.99	390.712	0.0369295	1.4	35.9976	0.752394
28	0.124759	1.00781	1.3434	7.16684	170.032	389.436	0.0366287	1.4	35.9976	0.752364
29	0.129087	1.00837	1.35169	7.41684	168.092	388.161	0.0363297	1.4	35.9976	0.752342
30	0.133564	1.00896	1.36027	7.67561	166.103	386.843	0.0360221	1.4	35.9976	0.752317
31	0.137887	1.00955	1.36881	7.92561	164.138	385.53	0.0357173	1.4	35.9976	0.752302
32	0.142208	1.01016	1.37736	8.17561	162.192	384.219	0.0354143	1.4	35.9976	0.752287
33	0.14778	1.01098	1.38838	8.49832	159.708	382.528	0.035026	1.4	35.9976	0.75225
34	0.152094	1.01163	1.39715	8.74832	157.751	381.183	0.0347189	1.4	35.9976	0.752246
35	0.156406	1.01231	1.40593	8.99832	155.813	379.839	0.0344138	1.4	35.9976	0.752247
36	0.163168	1.0134	1.4197	9.39083	152.81	377.733	0.0339386	1.4	35.9975	0.752185
37	0.167471	1.01412	1.42868	9.64083	150.874	376.359	0.0336309	1.4	35.9975	0.752198
38	0.171771	1.01486	1.43767	9.89083	148.958	374.988	0.0333253	1.4	35.9975	0.752216
39	0.179825	1.0163	1.45452	10.3596	145.418	372.419	0.0327577	1.4	35.9975	0.752122
40	0.184116	1.0171	1.46371	10.6096	143.517	371.022	0.0324512	1.4	35.9975	0.752156
41	0.188403	1.01791	1.47289	10.8596	141.636	369.626	0.0321469	1.4	35.9975	0.752199
42	0.192686	1.01874	1.48208	11.1096	139.775	368.232	0.0318445	1.4	35.9976	0.752245
43	0.197856	1.01977	1.49319	11.4116	137.551	366.548	0.0314819	1.4	35.9976	0.752293
44	0.202131	1.02064	1.50256	11.6616	135.698	365.131	0.0311783	1.4	35.9976	0.752352
45	0.206403	1.02153	1.51193	11.9116	133.865	363.714	0.0308769	1.4	35.9976	0.752418
46	0.21067	1.02244	1.52131	12.1616	132.051	362.299	0.0305775	1.4	35.9976	0.752488
47	0.217373	1.02391	1.53608	12.5548	129.237	360.077	0.0301106	1.4	35.9977	0.752546
